# Temperatura_=_20.0
# Concentracion g/m^3_=_10000.0
# C_Vs_to_Am_M_A/Vsm_=_116720831517.84952
# pendiente_HvsI_1/m_=_3716.3
# ordenada_HvsI_A/m_=_1297.0
# frecuencia_Hz_=_309751.8890097972
# Promedio de 37 ciclos

Tiempo_(s)	Campo_(V.s)	Magnetizacion_(V.s)	Campo_(kA/m)	Magnetizacion_(A/m)
0.000000e+00	-3.396451e-09	-2.457633e-09	-2.917172e+01	-2.873178e+02
1.000000e-08	-3.395135e-09	-2.457197e-09	-2.916042e+01	-2.871639e+02
2.000000e-08	-3.392348e-09	-2.455249e-09	-2.913648e+01	-2.869509e+02
3.000000e-08	-3.388330e-09	-2.452752e-09	-2.910197e+01	-2.866883e+02
4.000000e-08	-3.383288e-09	-2.448494e-09	-2.905866e+01	-2.863834e+02
5.000000e-08	-3.377095e-09	-2.443591e-09	-2.900548e+01	-2.860407e+02
6.000000e-08	-3.369769e-09	-2.438509e-09	-2.894255e+01	-2.856611e+02
7.000000e-08	-3.361381e-09	-2.434574e-09	-2.887050e+01	-2.852421e+02
8.000000e-08	-3.351471e-09	-2.448867e-09	-2.878539e+01	-2.847775e+02
9.000000e-08	-3.339560e-09	-2.461079e-09	-2.868308e+01	-2.842587e+02
1.000000e-07	-3.325890e-09	-2.451101e-09	-2.856568e+01	-2.836752e+02
1.100000e-07	-3.310853e-09	-2.426012e-09	-2.843653e+01	-2.830157e+02
1.200000e-07	-3.294788e-09	-2.386517e-09	-2.829855e+01	-2.822698e+02
1.300000e-07	-3.277866e-09	-2.387447e-09	-2.815321e+01	-2.814289e+02
1.400000e-07	-3.259780e-09	-2.406214e-09	-2.799787e+01	-2.804869e+02
1.500000e-07	-3.240483e-09	-2.382539e-09	-2.783212e+01	-2.794413e+02
1.600000e-07	-3.220349e-09	-2.380765e-09	-2.765920e+01	-2.782929e+02
1.700000e-07	-3.199195e-09	-2.390816e-09	-2.747750e+01	-2.770461e+02
1.800000e-07	-3.176825e-09	-2.357806e-09	-2.728537e+01	-2.757076e+02
1.900000e-07	-3.153437e-09	-2.349305e-09	-2.708450e+01	-2.742865e+02
2.000000e-07	-3.128869e-09	-2.348365e-09	-2.687348e+01	-2.727920e+02
2.100000e-07	-3.102888e-09	-2.316193e-09	-2.665034e+01	-2.712333e+02
2.200000e-07	-3.075590e-09	-2.312931e-09	-2.641587e+01	-2.696178e+02
2.300000e-07	-3.047088e-09	-2.306092e-09	-2.617108e+01	-2.679505e+02
2.400000e-07	-3.017516e-09	-2.285308e-09	-2.591708e+01	-2.662334e+02
2.500000e-07	-2.986967e-09	-2.281528e-09	-2.565470e+01	-2.644654e+02
2.600000e-07	-2.955415e-09	-2.259091e-09	-2.538371e+01	-2.626423e+02
2.700000e-07	-2.922832e-09	-2.238602e-09	-2.510385e+01	-2.607577e+02
2.800000e-07	-2.888952e-09	-2.226824e-09	-2.481286e+01	-2.588035e+02
2.900000e-07	-2.853727e-09	-2.195868e-09	-2.451032e+01	-2.567713e+02
3.000000e-07	-2.817463e-09	-2.178340e-09	-2.419885e+01	-2.546529e+02
3.100000e-07	-2.780200e-09	-2.175971e-09	-2.387881e+01	-2.524418e+02
3.200000e-07	-2.741837e-09	-2.156935e-09	-2.354930e+01	-2.501336e+02
3.300000e-07	-2.702456e-09	-2.128928e-09	-2.321106e+01	-2.477265e+02
3.400000e-07	-2.662274e-09	-2.110621e-09	-2.286594e+01	-2.452215e+02
3.500000e-07	-2.621164e-09	-2.083794e-09	-2.251286e+01	-2.426219e+02
3.600000e-07	-2.578785e-09	-2.050667e-09	-2.214887e+01	-2.399329e+02
3.700000e-07	-2.535211e-09	-2.032862e-09	-2.177461e+01	-2.371609e+02
3.800000e-07	-2.490703e-09	-2.009401e-09	-2.139234e+01	-2.343122e+02
3.900000e-07	-2.445319e-09	-1.983195e-09	-2.100255e+01	-2.313928e+02
4.000000e-07	-2.399042e-09	-1.965103e-09	-2.060508e+01	-2.284069e+02
4.100000e-07	-2.351878e-09	-1.937303e-09	-2.019999e+01	-2.253566e+02
4.200000e-07	-2.303926e-09	-1.904664e-09	-1.978813e+01	-2.222419e+02
4.300000e-07	-2.255074e-09	-1.874817e-09	-1.936856e+01	-2.190603e+02
4.400000e-07	-2.204967e-09	-1.842523e-09	-1.893819e+01	-2.158074e+02
4.500000e-07	-2.153635e-09	-1.814290e-09	-1.849730e+01	-2.124772e+02
4.600000e-07	-2.101356e-09	-1.787030e-09	-1.804829e+01	-2.090632e+02
4.700000e-07	-2.048256e-09	-1.757958e-09	-1.759221e+01	-2.055587e+02
4.800000e-07	-1.994445e-09	-1.729206e-09	-1.713004e+01	-2.019577e+02
4.900000e-07	-1.939936e-09	-1.696327e-09	-1.666187e+01	-1.982558e+02
5.000000e-07	-1.884684e-09	-1.659967e-09	-1.618732e+01	-1.944499e+02
5.100000e-07	-1.828826e-09	-1.625823e-09	-1.570756e+01	-1.905392e+02
5.200000e-07	-1.772438e-09	-1.592154e-09	-1.522325e+01	-1.865241e+02
5.300000e-07	-1.715323e-09	-1.554710e-09	-1.473269e+01	-1.824067e+02
5.400000e-07	-1.657281e-09	-1.520663e-09	-1.423417e+01	-1.781899e+02
5.500000e-07	-1.598308e-09	-1.486442e-09	-1.372766e+01	-1.738768e+02
5.600000e-07	-1.538649e-09	-1.447707e-09	-1.321526e+01	-1.694702e+02
5.700000e-07	-1.478564e-09	-1.408873e-09	-1.269920e+01	-1.649721e+02
5.800000e-07	-1.418016e-09	-1.368099e-09	-1.217916e+01	-1.603834e+02
5.900000e-07	-1.356893e-09	-1.326404e-09	-1.165418e+01	-1.557038e+02
6.000000e-07	-1.295242e-09	-1.285842e-09	-1.112467e+01	-1.509320e+02
6.100000e-07	-1.233184e-09	-1.244544e-09	-1.059166e+01	-1.460655e+02
6.200000e-07	-1.170800e-09	-1.201733e-09	-1.005585e+01	-1.411016e+02
6.300000e-07	-1.108050e-09	-1.157345e-09	-9.516893e+00	-1.360379e+02
6.400000e-07	-1.044836e-09	-1.111525e-09	-8.973955e+00	-1.308722e+02
6.500000e-07	-9.811725e-10	-1.064709e-09	-8.427157e+00	-1.256039e+02
6.600000e-07	-9.172252e-10	-1.016211e-09	-7.877920e+00	-1.202333e+02
6.700000e-07	-8.531298e-10	-9.675053e-10	-7.327412e+00	-1.147625e+02
6.800000e-07	-7.888938e-10	-9.202197e-10	-6.775696e+00	-1.091950e+02
6.900000e-07	-7.244672e-10	-8.723655e-10	-6.222343e+00	-1.035354e+02
7.000000e-07	-6.597815e-10	-8.217290e-10	-5.666766e+00	-9.778912e+01
7.100000e-07	-5.948096e-10	-7.700368e-10	-5.108729e+00	-9.196182e+01
7.200000e-07	-5.295420e-10	-7.180376e-10	-4.548155e+00	-8.605899e+01
7.300000e-07	-4.639392e-10	-6.671552e-10	-3.984700e+00	-8.008546e+01
7.400000e-07	-3.980182e-10	-6.182052e-10	-3.418513e+00	-7.404512e+01
7.500000e-07	-3.318292e-10	-5.678218e-10	-2.850023e+00	-6.794084e+01
7.600000e-07	-2.654483e-10	-5.157875e-10	-2.279886e+00	-6.177449e+01
7.700000e-07	-1.989456e-10	-4.626615e-10	-1.708703e+00	-5.554724e+01
7.800000e-07	-1.323394e-10	-4.085186e-10	-1.136630e+00	-4.925990e+01
7.900000e-07	-6.565556e-11	-3.529038e-10	-5.638912e-01	-4.291342e+01
8.000000e-07	1.081046e-12	-2.957286e-10	9.301085e-03	-3.650933e+01
8.100000e-07	6.784071e-11	-2.389985e-10	5.826914e-01	-3.005012e+01
8.200000e-07	1.345823e-10	-1.836508e-10	1.155927e+00	-2.353951e+01
8.300000e-07	2.012475e-10	-1.291830e-10	1.728506e+00	-1.698246e+01
8.400000e-07	2.677911e-10	-7.355338e-11	2.300040e+00	-1.038504e+01
8.500000e-07	3.341829e-10	-1.616399e-11	2.870271e+00	-3.754085e+00
8.600000e-07	4.003669e-10	4.088314e-11	3.438717e+00	2.903350e+00
8.700000e-07	4.662910e-10	9.691497e-11	4.004931e+00	9.580539e+00
8.800000e-07	5.319161e-10	1.531536e-10	4.568577e+00	1.627168e+01
8.900000e-07	5.972081e-10	2.098459e-10	5.129361e+00	2.297239e+01
9.000000e-07	6.621623e-10	2.664441e-10	5.687244e+00	2.967999e+01
9.100000e-07	7.267933e-10	3.227815e-10	6.242352e+00	3.639363e+01
9.200000e-07	7.911382e-10	3.796691e-10	6.795004e+00	4.311403e+01
9.300000e-07	8.552564e-10	4.367498e-10	7.345708e+00	4.984306e+01
9.400000e-07	9.191749e-10	4.937208e-10	7.894696e+00	5.658302e+01
9.500000e-07	9.828544e-10	5.519609e-10	8.441632e+00	6.333585e+01
9.600000e-07	1.046218e-09	6.105257e-10	8.985855e+00	7.010215e+01
9.700000e-07	1.109192e-09	6.675998e-10	9.526729e+00	7.688040e+01
9.800000e-07	1.171753e-09	7.232659e-10	1.006406e+01	8.366628e+01
9.900000e-07	1.233917e-09	7.786800e-10	1.059798e+01	9.045217e+01
1.000000e-06	1.295675e-09	8.342183e-10	1.112841e+01	9.722714e+01
1.010000e-06	1.356967e-09	8.893996e-10	1.165484e+01	1.039771e+02
1.020000e-06	1.417734e-09	9.442101e-10	1.217677e+01	1.106854e+02
1.030000e-06	1.478031e-09	9.982597e-10	1.269464e+01	1.173337e+02
1.040000e-06	1.537958e-09	1.052205e-09	1.320936e+01	1.239030e+02
1.050000e-06	1.597446e-09	1.107457e-09	1.372029e+01	1.303747e+02
1.060000e-06	1.656214e-09	1.162727e-09	1.422504e+01	1.367316e+02
1.070000e-06	1.714014e-09	1.215648e-09	1.472148e+01	1.429591e+02
1.080000e-06	1.770875e-09	1.265858e-09	1.520985e+01	1.490455e+02
1.090000e-06	1.827065e-09	1.315125e-09	1.569246e+01	1.549826e+02
1.100000e-06	1.882740e-09	1.363764e-09	1.617064e+01	1.607655e+02
1.110000e-06	1.937802e-09	1.411527e-09	1.664357e+01	1.663925e+02
1.120000e-06	1.992160e-09	1.457548e-09	1.711044e+01	1.718643e+02
1.130000e-06	2.045807e-09	1.502368e-09	1.757121e+01	1.771831e+02
1.140000e-06	2.098695e-09	1.545886e-09	1.802546e+01	1.823522e+02
1.150000e-06	2.150751e-09	1.587378e-09	1.847256e+01	1.873747e+02
1.160000e-06	2.201813e-09	1.628044e-09	1.891113e+01	1.922532e+02
1.170000e-06	2.251661e-09	1.668913e-09	1.933926e+01	1.969892e+02
1.180000e-06	2.300373e-09	1.708892e-09	1.975764e+01	2.015827e+02
1.190000e-06	2.348231e-09	1.747093e-09	2.016869e+01	2.060329e+02
1.200000e-06	2.395286e-09	1.782837e-09	2.057284e+01	2.103379e+02
1.210000e-06	2.441485e-09	1.814497e-09	2.096964e+01	2.144957e+02
1.220000e-06	2.486811e-09	1.843476e-09	2.135894e+01	2.185046e+02
1.230000e-06	2.531301e-09	1.872444e-09	2.174106e+01	2.223638e+02
1.240000e-06	2.575062e-09	1.902785e-09	2.211692e+01	2.260743e+02
1.250000e-06	2.617843e-09	1.933668e-09	2.248436e+01	2.296385e+02
1.260000e-06	2.659297e-09	1.963895e-09	2.284040e+01	2.330611e+02
1.270000e-06	2.699590e-09	1.993315e-09	2.318647e+01	2.363483e+02
1.280000e-06	2.738949e-09	2.022700e-09	2.352452e+01	2.395075e+02
1.290000e-06	2.777346e-09	2.050752e-09	2.385431e+01	2.425470e+02
1.300000e-06	2.814746e-09	2.075779e-09	2.417553e+01	2.454748e+02
1.310000e-06	2.851211e-09	2.098027e-09	2.448872e+01	2.482981e+02
1.320000e-06	2.886766e-09	2.119212e-09	2.479411e+01	2.510228e+02
1.330000e-06	2.921125e-09	2.141961e-09	2.508921e+01	2.536526e+02
1.340000e-06	2.954112e-09	2.165802e-09	2.537253e+01	2.561892e+02
1.350000e-06	2.985971e-09	2.189368e-09	2.564616e+01	2.586320e+02
1.360000e-06	3.016824e-09	2.212571e-09	2.591115e+01	2.609787e+02
1.370000e-06	3.046622e-09	2.235235e-09	2.616709e+01	2.632259e+02
1.380000e-06	3.075394e-09	2.255162e-09	2.641421e+01	2.653694e+02
1.390000e-06	3.103181e-09	2.270418e-09	2.665286e+01	2.674055e+02
1.400000e-06	3.129728e-09	2.283010e-09	2.688088e+01	2.693313e+02
1.410000e-06	3.154799e-09	2.296272e-09	2.709621e+01	2.711454e+02
1.420000e-06	3.178580e-09	2.312188e-09	2.730046e+01	2.728484e+02
1.430000e-06	3.201218e-09	2.328867e-09	2.749489e+01	2.744428e+02
1.440000e-06	3.222716e-09	2.344449e-09	2.767953e+01	2.759326e+02
1.450000e-06	3.243176e-09	2.358258e-09	2.785526e+01	2.773233e+02
1.460000e-06	3.262599e-09	2.369919e-09	2.802208e+01	2.786207e+02
1.470000e-06	3.280740e-09	2.379868e-09	2.817790e+01	2.798305e+02
1.480000e-06	3.297547e-09	2.388157e-09	2.832225e+01	2.809573e+02
1.490000e-06	3.313074e-09	2.395657e-09	2.845561e+01	2.820044e+02
1.500000e-06	3.327283e-09	2.404869e-09	2.857765e+01	2.829726e+02
1.510000e-06	3.340218e-09	2.415981e-09	2.868874e+01	2.838611e+02
1.520000e-06	3.351825e-09	2.425585e-09	2.878843e+01	2.846669e+02
1.530000e-06	3.361865e-09	2.431687e-09	2.887467e+01	2.853856e+02
1.540000e-06	3.370410e-09	2.436272e-09	2.894806e+01	2.860122e+02
1.550000e-06	3.377746e-09	2.441783e-09	2.901107e+01	2.865418e+02
1.560000e-06	3.383880e-09	2.448840e-09	2.906375e+01	2.869705e+02
1.570000e-06	3.388823e-09	2.454976e-09	2.910621e+01	2.872966e+02
1.580000e-06	3.392663e-09	2.459305e-09	2.913918e+01	2.875206e+02
1.590000e-06	3.395160e-09	2.463321e-09	2.916063e+01	2.876459e+02
1.600000e-06	3.396162e-09	2.466824e-09	2.916923e+01	2.876787e+02
1.610000e-06	3.395931e-09	2.466978e-09	2.916726e+01	2.876273e+02
1.620000e-06	3.394603e-09	2.464756e-09	2.915585e+01	2.875017e+02
1.630000e-06	3.392175e-09	2.462214e-09	2.913500e+01	2.873127e+02
1.640000e-06	3.388750e-09	2.460567e-09	2.910558e+01	2.870701e+02
1.650000e-06	3.384328e-09	2.459896e-09	2.906760e+01	2.867824e+02
1.660000e-06	3.378586e-09	2.458738e-09	2.901828e+01	2.864555e+02
1.670000e-06	3.371477e-09	2.458886e-09	2.895722e+01	2.860917e+02
1.680000e-06	3.363380e-09	2.457443e-09	2.888768e+01	2.856901e+02
1.690000e-06	3.354378e-09	2.426184e-09	2.881036e+01	2.852460e+02
1.700000e-06	3.344069e-09	2.395553e-09	2.872181e+01	2.847517e+02
1.710000e-06	3.331847e-09	2.387379e-09	2.861684e+01	2.841972e+02
1.720000e-06	3.317544e-09	2.416008e-09	2.849399e+01	2.835716e+02
1.730000e-06	3.301875e-09	2.446550e-09	2.835941e+01	2.828640e+02
1.740000e-06	3.285582e-09	2.421576e-09	2.821947e+01	2.820646e+02
1.750000e-06	3.268440e-09	2.419987e-09	2.807225e+01	2.811664e+02
1.760000e-06	3.249963e-09	2.438614e-09	2.791355e+01	2.801652e+02
1.770000e-06	3.230434e-09	2.409864e-09	2.774581e+01	2.790604e+02
1.780000e-06	3.209918e-09	2.387889e-09	2.756960e+01	2.778548e+02
1.790000e-06	3.187832e-09	2.390501e-09	2.737991e+01	2.765544e+02
1.800000e-06	3.164391e-09	2.359764e-09	2.717858e+01	2.751673e+02
1.810000e-06	3.139925e-09	2.348781e-09	2.696844e+01	2.737028e+02
1.820000e-06	3.114219e-09	2.351654e-09	2.674766e+01	2.721703e+02
1.830000e-06	3.087484e-09	2.319294e-09	2.651804e+01	2.705781e+02
1.840000e-06	3.059807e-09	2.309844e-09	2.628032e+01	2.689322e+02
1.850000e-06	3.030855e-09	2.296923e-09	2.603166e+01	2.672361e+02
1.860000e-06	3.000517e-09	2.274665e-09	2.577108e+01	2.654900e+02
1.870000e-06	2.968892e-09	2.285291e-09	2.549946e+01	2.636910e+02
1.880000e-06	2.936191e-09	2.253279e-09	2.521860e+01	2.618335e+02
1.890000e-06	2.902513e-09	2.227519e-09	2.492934e+01	2.599100e+02
1.900000e-06	2.867763e-09	2.234644e-09	2.463088e+01	2.579121e+02
1.910000e-06	2.832106e-09	2.196963e-09	2.432462e+01	2.558314e+02
1.920000e-06	2.795502e-09	2.172224e-09	2.401023e+01	2.536606e+02
1.930000e-06	2.757499e-09	2.156372e-09	2.368382e+01	2.513943e+02
1.940000e-06	2.718179e-09	2.128451e-09	2.334611e+01	2.490295e+02
1.950000e-06	2.677882e-09	2.108152e-09	2.300001e+01	2.465661e+02
1.960000e-06	2.636674e-09	2.089827e-09	2.264608e+01	2.440063e+02
1.970000e-06	2.594542e-09	2.078660e-09	2.228421e+01	2.413548e+02
1.980000e-06	2.551524e-09	2.048129e-09	2.191473e+01	2.386174e+02
1.990000e-06	2.507732e-09	2.025912e-09	2.153861e+01	2.358006e+02
2.000000e-06	2.463059e-09	2.007896e-09	2.115492e+01	2.329107e+02
2.010000e-06	2.417374e-09	1.971668e-09	2.076253e+01	2.299527e+02
2.020000e-06	2.370751e-09	1.954252e-09	2.036209e+01	2.269297e+02
2.030000e-06	2.323288e-09	1.926489e-09	1.995444e+01	2.238426e+02
2.040000e-06	2.274905e-09	1.898074e-09	1.953888e+01	2.206899e+02
2.050000e-06	2.225535e-09	1.877832e-09	1.911485e+01	2.174680e+02
2.060000e-06	2.175345e-09	1.843503e-09	1.868377e+01	2.141716e+02
2.070000e-06	2.124377e-09	1.817923e-09	1.824602e+01	2.107942e+02
2.080000e-06	2.072568e-09	1.786406e-09	1.780103e+01	2.073291e+02
2.090000e-06	2.019771e-09	1.755761e-09	1.734757e+01	2.037700e+02
2.100000e-06	1.965787e-09	1.732088e-09	1.688390e+01	2.001116e+02
2.110000e-06	1.910790e-09	1.701269e-09	1.641154e+01	1.963504e+02
2.120000e-06	1.855143e-09	1.667904e-09	1.593359e+01	1.924844e+02
2.130000e-06	1.798945e-09	1.627855e-09	1.545092e+01	1.885137e+02
2.140000e-06	1.742096e-09	1.590790e-09	1.496265e+01	1.844397e+02
2.150000e-06	1.684565e-09	1.551202e-09	1.446852e+01	1.802650e+02
2.160000e-06	1.626414e-09	1.513548e-09	1.396907e+01	1.759925e+02
2.170000e-06	1.567653e-09	1.481235e-09	1.346437e+01	1.716255e+02
2.180000e-06	1.508359e-09	1.444770e-09	1.295510e+01	1.671662e+02
2.190000e-06	1.448671e-09	1.412405e-09	1.244246e+01	1.626161e+02
2.200000e-06	1.388595e-09	1.374914e-09	1.192647e+01	1.579754e+02
2.210000e-06	1.327945e-09	1.331703e-09	1.140555e+01	1.532432e+02
2.220000e-06	1.266543e-09	1.286575e-09	1.087818e+01	1.484174e+02
2.230000e-06	1.204392e-09	1.240228e-09	1.034437e+01	1.434954e+02
2.240000e-06	1.141606e-09	1.197919e-09	9.805109e+00	1.384746e+02
2.250000e-06	1.078358e-09	1.156647e-09	9.261878e+00	1.333527e+02
2.260000e-06	1.014789e-09	1.115908e-09	8.715888e+00	1.281282e+02
2.270000e-06	9.509565e-10	1.073525e-09	8.167640e+00	1.228011e+02
2.280000e-06	8.868672e-10	1.029491e-09	7.617184e+00	1.173727e+02
2.290000e-06	8.225078e-10	9.827949e-10	7.064409e+00	1.118460e+02
2.300000e-06	7.578547e-10	9.329838e-10	6.509111e+00	1.062251e+02
2.310000e-06	6.928900e-10	8.820945e-10	5.951137e+00	1.005151e+02
2.320000e-06	6.276381e-10	8.299894e-10	5.390696e+00	9.472165e+01
2.330000e-06	5.621402e-10	7.794208e-10	4.828142e+00	8.885039e+01
2.340000e-06	4.964732e-10	7.300278e-10	4.264135e+00	8.290644e+01
2.350000e-06	4.306535e-10	6.813901e-10	3.698818e+00	7.689416e+01
2.360000e-06	3.646710e-10	6.327701e-10	3.132101e+00	7.081684e+01
2.370000e-06	2.985579e-10	5.817749e-10	2.564263e+00	6.467677e+01
2.380000e-06	2.323188e-10	5.289163e-10	1.995344e+00	5.847537e+01
2.390000e-06	1.660172e-10	4.739475e-10	1.425887e+00	5.221356e+01
2.400000e-06	9.966493e-11	4.171011e-10	8.559950e-01	4.589217e+01
2.410000e-06	3.325800e-11	3.599503e-10	2.856337e-01	3.951241e+01
2.420000e-06	-3.316879e-11	3.043430e-10	-2.848982e-01	3.307633e+01
2.430000e-06	-9.960143e-11	2.489752e-10	-8.554802e-01	2.658711e+01
2.440000e-06	-1.659722e-10	1.926721e-10	-1.425531e+00	2.004917e+01
2.450000e-06	-2.322497e-10	1.368678e-10	-1.994780e+00	1.346814e+01
2.460000e-06	-2.984658e-10	8.112327e-11	-2.563503e+00	6.850583e+00
2.470000e-06	-3.645979e-10	2.553147e-11	-3.131504e+00	2.035244e-01
2.480000e-06	-4.306002e-10	-3.113592e-11	-3.698390e+00	-6.466091e+00
2.490000e-06	-4.964571e-10	-8.964372e-11	-4.264028e+00	-1.315200e+01
2.500000e-06	-5.621385e-10	-1.483700e-10	-4.828157e+00	-1.984915e+01
2.510000e-06	-6.276308e-10	-2.064414e-10	-5.390663e+00	-2.655412e+01
2.520000e-06	-6.929202e-10	-2.649035e-10	-5.951426e+00	-3.326528e+01
2.530000e-06	-7.579253e-10	-3.235524e-10	-6.509747e+00	-3.998271e+01
2.540000e-06	-8.225791e-10	-3.809166e-10	-7.065051e+00	-4.670786e+01
2.550000e-06	-8.869091e-10	-4.376936e-10	-7.617574e+00	-5.344295e+01
2.560000e-06	-9.509541e-10	-4.944297e-10	-8.167649e+00	-6.019017e+01
2.570000e-06	-1.014738e-09	-5.531116e-10	-8.715485e+00	-6.695082e+01
2.580000e-06	-1.078271e-09	-6.147481e-10	-9.261159e+00	-7.372438e+01
2.590000e-06	-1.141475e-09	-6.768589e-10	-9.804014e+00	-8.050778e+01
2.600000e-06	-1.204198e-09	-7.383219e-10	-1.034273e+01	-8.729488e+01
2.610000e-06	-1.266298e-09	-7.990861e-10	-1.087610e+01	-9.407613e+01
2.620000e-06	-1.327649e-09	-8.592263e-10	-1.140304e+01	-1.008388e+02
2.630000e-06	-1.388263e-09	-9.187068e-10	-1.192364e+01	-1.075671e+02
2.640000e-06	-1.448325e-09	-9.763659e-10	-1.243951e+01	-1.142435e+02
2.650000e-06	-1.508001e-09	-1.032221e-09	-1.295206e+01	-1.208490e+02
2.660000e-06	-1.567263e-09	-1.087763e-09	-1.346105e+01	-1.273647e+02
2.670000e-06	-1.625952e-09	-1.144196e-09	-1.396513e+01	-1.337727e+02
2.680000e-06	-1.684019e-09	-1.199839e-09	-1.446386e+01	-1.400573e+02
2.690000e-06	-1.741469e-09	-1.253770e-09	-1.495729e+01	-1.462053e+02
2.700000e-06	-1.798240e-09	-1.306962e-09	-1.544489e+01	-1.522071e+02
2.710000e-06	-1.854380e-09	-1.359785e-09	-1.592706e+01	-1.580565e+02
2.720000e-06	-1.909998e-09	-1.410981e-09	-1.640477e+01	-1.637503e+02
2.730000e-06	-1.964953e-09	-1.458635e-09	-1.687677e+01	-1.692883e+02
2.740000e-06	-2.018913e-09	-1.503642e-09	-1.734022e+01	-1.746722e+02
2.750000e-06	-2.071759e-09	-1.547683e-09	-1.779411e+01	-1.799049e+02
2.760000e-06	-2.123665e-09	-1.592230e-09	-1.823993e+01	-1.849898e+02
2.770000e-06	-2.174743e-09	-1.637312e-09	-1.867862e+01	-1.899297e+02
2.780000e-06	-2.224984e-09	-1.680375e-09	-1.911014e+01	-1.947266e+02
2.790000e-06	-2.274341e-09	-1.720646e-09	-1.953406e+01	-1.993812e+02
2.800000e-06	-2.322568e-09	-1.760310e-09	-1.994828e+01	-2.038930e+02
2.810000e-06	-2.369620e-09	-1.799285e-09	-2.035240e+01	-2.082604e+02
2.820000e-06	-2.415781e-09	-1.836493e-09	-2.074887e+01	-2.124815e+02
2.830000e-06	-2.461119e-09	-1.872287e-09	-2.113827e+01	-2.165543e+02
2.840000e-06	-2.505608e-09	-1.907108e-09	-2.152038e+01	-2.204776e+02
2.850000e-06	-2.549386e-09	-1.941509e-09	-2.189639e+01	-2.242516e+02
2.860000e-06	-2.592419e-09	-1.974861e-09	-2.226599e+01	-2.278780e+02
2.870000e-06	-2.634538e-09	-2.006149e-09	-2.262775e+01	-2.313606e+02
2.880000e-06	-2.675690e-09	-2.035895e-09	-2.298119e+01	-2.347049e+02
2.890000e-06	-2.715928e-09	-2.064353e-09	-2.332680e+01	-2.379180e+02
2.900000e-06	-2.755314e-09	-2.090869e-09	-2.366508e+01	-2.410077e+02
2.910000e-06	-2.793541e-09	-2.115150e-09	-2.399341e+01	-2.439824e+02
2.920000e-06	-2.830397e-09	-2.137885e-09	-2.430996e+01	-2.468496e+02
2.930000e-06	-2.866191e-09	-2.160076e-09	-2.461739e+01	-2.496160e+02
2.940000e-06	-2.901051e-09	-2.182403e-09	-2.491680e+01	-2.522861e+02
